time (s), x (m), y (m), z (m), rho
0,-600,-700,-1,5.4902e-44
5.1107,-599.99,-699.96,-1.0001,5.6229e-44
10.221,-599.95,-699.83,-1.0004,6.038e-44
15.332,-599.89,-699.62,-1.0009,6.7938e-44
20.443,-599.8,-699.33,-1.0016,8.004e-44
25.553,-599.69,-698.96,-1.0024,9.8668e-44
30.664,-599.56,-698.51,-1.0035,1.2717e-43
35.775,-599.4,-697.99,-1.0047,1.7124e-43
40.885,-599.22,-697.38,-1.0061,2.4071e-43
45.996,-599.01,-696.7,-1.0077,3.5292e-43
51.107,-598.79,-695.94,-1.0095,5.3922e-43
56.217,-598.54,-695.11,-1.0114,8.5781e-43
61.328,-598.26,-694.21,-1.0136,4.0892e-42
66.439,-597.97,-693.24,-1.0158,7.0096e-42
71.549,-597.65,-692.19,-1.0183,1.2473e-41
76.66,-597.31,-691.08,-1.0209,2.3015e-41
81.771,-596.95,-689.89,-1.0237,4.3998e-41
86.881,-596.57,-688.64,-1.0266,8.7055e-41
91.992,-596.17,-687.32,-1.0296,1.7809e-40
97.103,-595.75,-685.94,-1.0329,3.7629e-40
102.21,-595.31,-684.49,-1.0362,8.2035e-40
107.32,-594.84,-682.98,-1.0398,1.8433e-39
112.43,-594.36,-681.41,-1.0434,4.2646e-39
117.55,-593.86,-679.77,-1.0472,1.0147e-38
122.66,-593.33,-678.08,-1.0511,2.4805e-38
127.77,-592.79,-676.32,-1.0552,6.2229e-38
132.88,-592.23,-674.51,-1.0594,1.6004e-37
137.99,-591.65,-672.65,-1.0638,4.2145e-37
143.1,-591.05,-670.72,-1.0682,1.1353e-36
148.21,-590.44,-668.74,-1.0728,3.1245e-36
153.32,-589.8,-666.71,-1.0775,8.7764e-36
158.43,-589.15,-664.62,-1.0823,2.5132e-35
163.54,-588.48,-662.49,-1.0873,7.3288e-35
168.65,-587.79,-660.3,-1.0923,2.1739e-34
173.76,-587.09,-658.06,-1.0975,6.5522e-34
178.87,-586.37,-655.78,-1.1027,2.0044e-33
183.98,-585.63,-653.45,-1.1081,1.5171e-32
189.09,-584.88,-651.07,-1.1136,4.7262e-32
194.21,-584.11,-648.65,-1.1192,1.4892e-31
199.32,-583.32,-646.18,-1.1248,4.7413e-31
204.43,-582.52,-643.67,-1.1306,1.5235e-30
209.54,-581.71,-641.12,-1.1365,4.936e-30
214.65,-580.87,-638.52,-1.1424,1.6106e-29
219.76,-580.03,-635.89,-1.1485,5.2876e-29
224.87,-579.17,-633.22,-1.1546,1.7447e-28
229.98,-578.29,-630.51,-1.1608,5.7803e-28
235.09,-577.4,-627.76,-1.1671,1.9209e-27
240.2,-576.5,-624.98,-1.1734,6.3963e-27
245.31,-575.58,-622.17,-1.1798,2.1321e-26
250.42,-574.65,-619.32,-1.1863,7.1079e-26
255.53,-573.71,-616.43,-1.1929,2.3675e-25
260.64,-572.75,-613.52,-1.1995,7.8716e-25
265.75,-571.78,-610.58,-1.2062,2.61e-24
270.86,-570.8,-607.61,-1.213,8.623e-24
275.98,-569.8,-604.61,-1.2198,2.836e-23
281.09,-568.8,-601.58,-1.2266,9.2771e-23
286.2,-567.78,-598.53,-1.2335,3.0159e-22
291.31,-566.75,-595.45,-1.2405,9.735e-22
296.42,-565.71,-592.35,-1.2475,3.1177e-21
301.53,-564.66,-589.23,-1.2546,1.8837e-20
306.64,-563.6,-586.08,-1.2616,5.86e-20
311.75,-562.52,-582.91,-1.2688,1.8043e-19
316.86,-561.44,-579.73,-1.2759,5.4948e-19
321.97,-560.35,-576.52,-1.2831,1.6539e-18
327.08,-559.25,-573.3,-1.2904,4.9165e-18
332.19,-558.13,-570.07,-1.2976,1.4426e-17
337.3,-557.01,-566.81,-1.3049,4.1752e-17
342.41,-555.88,-563.55,-1.3122,1.1912e-16
347.52,-554.74,-560.27,-1.3195,3.3483e-16
352.64,-553.6,-556.97,-1.3268,9.267e-16
357.75,-552.44,-553.67,-1.3342,2.524e-15
362.86,-551.28,-550.36,-1.3415,6.7616e-15
367.97,-550.1,-547.04,-1.3489,1.7808e-14
373.08,-548.92,-543.71,-1.3563,4.6085e-14
378.19,-547.74,-540.37,-1.3637,1.1714e-13
383.3,-546.54,-537.03,-1.371,2.9233e-13
388.41,-545.34,-533.69,-1.3784,7.1595e-13
393.52,-544.14,-530.34,-1.3858,1.7202e-12
398.63,-542.92,-526.99,-1.3931,4.0532e-12
403.74,-541.7,-523.63,-1.4005,9.363e-12
408.85,-540.48,-520.28,-1.4078,2.1199e-11
413.96,-539.25,-516.93,-1.4151,4.7027e-11
419.07,-538.01,-513.58,-1.4224,1.022e-10
424.18,-536.77,-510.23,-1.4297,3.0603e-10
429.3,-535.52,-506.89,-1.437,6.3052e-10
434.41,-534.27,-503.55,-1.4442,1.2719e-09
439.52,-533.02,-500.22,-1.4514,2.5118e-09
444.63,-531.76,-496.89,-1.4586,4.8557e-09
449.74,-530.49,-493.58,-1.4657,9.1882e-09
454.85,-529.23,-490.27,-1.4728,1.7018e-08
459.96,-527.96,-486.97,-1.4799,3.0851e-08
465.07,-526.68,-483.69,-1.4869,5.4746e-08
470.18,-525.41,-480.42,-1.4939,9.5095e-08
475.29,-524.13,-477.16,-1.5008,1.6171e-07
480.4,-522.84,-473.91,-1.5076,2.6925e-07
485.51,-521.56,-470.69,-1.5145,4.3899e-07
490.62,-520.27,-467.47,-1.5212,7.0102e-07
495.73,-518.99,-464.28,-1.5279,1.0967e-06
500.84,-517.7,-461.11,-1.5346,1.6812e-06
505.96,-516.41,-457.95,-1.5411,2.5263e-06
511.07,-515.12,-454.82,-1.5477,3.7223e-06
516.18,-513.82,-451.71,-1.5541,5.3797e-06
521.29,-512.53,-448.62,-1.5605,7.6299e-06
526.4,-511.24,-445.56,-1.5667,1.0624e-05
531.51,-509.94,-442.52,-1.573,1.453e-05
536.62,-508.65,-439.51,-1.5791,1.9529e-05
541.73,-507.36,-436.53,-1.5851,2.8135e-05
546.84,-506.07,-433.57,-1.5911,3.636e-05
551.95,-504.78,-430.65,-1.597,4.6289e-05
557.06,-503.49,-427.75,-1.6028,5.8089e-05
562.17,-502.2,-424.89,-1.6085,7.191e-05
567.28,-500.91,-422.06,-1.6141,8.7878e-05
572.39,-499.63,-419.26,-1.6196,0.00010609
577.5,-498.35,-416.5,-1.625,0.00012662
582.62,-497.07,-413.78,-1.6302,0.0001495
587.73,-495.79,-411.09,-1.6354,0.00017473
592.84,-494.52,-408.44,-1.6405,0.00020227
597.95,-493.25,-405.83,-1.6455,0.00023207
603.06,-491.98,-403.26,-1.6503,0.000264
608.17,-490.72,-400.74,-1.655,0.00029791
613.28,-489.46,-398.25,-1.6596,0.00033358
618.39,-488.19,-395.81,-1.6641,0.00037078
623.5,-486.88,-393.4,-1.6688,0.00040936
628.61,-485.51,-391.01,-1.6735,0.0004491
633.72,-484.09,-388.66,-1.6784,0.00048967
638.83,-482.6,-386.33,-1.6833,0.00053071
643.94,-481.06,-384.02,-1.6884,0.00057175
649.05,-479.46,-381.74,-1.6934,0.00061228
654.16,-477.81,-379.48,-1.6985,0.00065169
659.28,-476.1,-377.23,-1.7036,0.00068932
664.39,-474.34,-375.01,-1.7086,0.00073373
669.5,-472.53,-372.8,-1.7136,0.00076256
674.61,-470.66,-370.61,-1.7185,0.00078693
679.72,-468.75,-368.43,-1.7233,0.00080628
684.83,-466.79,-366.27,-1.728,0.00082021
689.94,-464.77,-364.11,-1.7326,0.00082847
695.05,-462.71,-361.97,-1.7369,0.00083105
700.16,-460.6,-359.83,-1.7411,0.00082817
705.27,-458.45,-357.7,-1.7451,0.00082031
710.38,-456.25,-355.58,-1.7488,0.00080819
715.49,-454.01,-353.46,-1.7523,0.00079271
720.6,-451.72,-351.35,-1.7554,0.00077495
725.71,-449.39,-349.23,-1.7583,0.00075609
730.82,-447.02,-347.12,-1.7608,0.00073731
735.93,-444.6,-345.01,-1.763,0.00071974
741.05,-442.15,-342.89,-1.7648,0.00070436
746.16,-439.66,-340.76,-1.7661,0.00069195
751.27,-437.13,-338.64,-1.7671,0.00068306
756.38,-434.56,-336.5,-1.7676,0.00067794
761.49,-431.95,-334.36,-1.7676,0.00067659
766.6,-429.31,-332.21,-1.7671,0.00067875
771.71,-426.64,-330.04,-1.7661,0.00068398
776.82,-423.93,-327.86,-1.7646,0.0006917
781.93,-421.19,-325.67,-1.7624,0.00069482
787.04,-418.41,-323.47,-1.7597,0.00070456
792.15,-415.6,-321.24,-1.7564,0.00071467
797.26,-412.77,-319,-1.7524,0.00072495
802.37,-409.9,-316.74,-1.7478,0.00073531
807.48,-407,-314.46,-1.7425,0.00074582
812.59,-404.08,-312.15,-1.7364,0.00075661
817.71,-401.13,-309.83,-1.7296,0.0007678
822.82,-398.15,-307.47,-1.7221,0.00077945
827.93,-395.12,-305.08,-1.7135,0.0007917
833.04,-391.96,-302.65,-1.7035,0.00080473
838.15,-388.68,-300.17,-1.692,0.00081805
843.26,-385.3,-297.65,-1.6793,0.00083081
848.37,-381.82,-295.09,-1.6653,0.00084193
853.48,-378.24,-292.5,-1.6501,0.00085032
858.59,-374.57,-289.88,-1.6338,0.00085515
863.7,-370.82,-287.22,-1.6166,0.00085621
868.81,-367,-284.55,-1.5984,0.00085412
873.92,-363.11,-281.85,-1.5794,0.00085046
879.03,-359.16,-279.13,-1.5596,0.00084762
884.14,-355.15,-276.4,-1.5392,0.00084836
889.25,-351.1,-273.65,-1.5181,0.00085529
894.37,-347,-270.9,-1.4965,0.00087024
899.48,-342.87,-268.14,-1.4745,0.00089378
904.59,-338.71,-265.37,-1.4521,0.00088563
909.7,-334.53,-262.61,-1.4295,0.0009204
914.81,-330.34,-259.85,-1.4066,0.00095714
919.92,-326.13,-257.09,-1.3837,0.00099328
925.03,-321.93,-254.35,-1.3607,0.0010269
930.14,-317.74,-251.62,-1.3377,0.001057
935.25,-313.55,-248.9,-1.3148,0.0010838
940.36,-309.39,-246.21,-1.2922,0.0011083
945.47,-305.25,-243.53,-1.2698,0.0011327
950.58,-301.14,-240.88,-1.2478,0.0011596
955.69,-297.08,-238.26,-1.2263,0.001192
960.8,-293.06,-235.67,-1.2052,0.0012325
965.91,-289.09,-233.12,-1.1848,0.0012835
971.03,-285.19,-230.6,-1.165,0.001346
976.14,-281.34,-228.13,-1.146,0.0014199
981.25,-277.58,-225.7,-1.1279,0.0015036
986.36,-273.89,-223.32,-1.1106,0.0015942
991.47,-270.29,-220.98,-1.0944,0.0016879
996.58,-266.78,-218.7,-1.0793,0.0017801
1001.7,-263.38,-216.48,-1.0653,0.0018666
1006.8,-260.08,-214.32,-1.0526,0.0019437
1011.9,-256.89,-212.22,-1.0411,0.0020088
1017,-253.82,-210.19,-1.0311,0.0020604
1022.1,-250.88,-208.23,-1.0226,0.0020565
1027.2,-248.08,-206.34,-1.0157,0.0020751
1032.4,-245.41,-204.53,-1.0112,0.0020841
1037.5,-242.87,-202.8,-1.0088,0.0020854
1042.6,-240.46,-201.15,-1.0086,0.0020809
1047.7,-238.16,-199.57,-1.0104,0.0020721
1052.8,-235.97,-198.06,-1.0139,0.0020606
1057.9,-233.89,-196.61,-1.0191,0.0020476
1063,-231.91,-195.23,-1.0258,0.002034
1068.1,-230.02,-193.9,-1.0338,0.0020208
1073.2,-228.21,-192.63,-1.043,0.0020085
1078.3,-226.49,-191.41,-1.0532,0.0019977
1083.5,-224.83,-190.24,-1.0644,0.0019886
1088.6,-223.24,-189.11,-1.0762,0.0019816
1093.7,-221.71,-188.02,-1.0886,0.001977
1098.8,-220.23,-186.97,-1.1014,0.0019747
1103.9,-218.79,-185.95,-1.1145,0.0019751
1109,-217.4,-184.97,-1.1277,0.0019782
1114.1,-216.04,-184.01,-1.1409,0.001984
1119.2,-214.7,-183.07,-1.1538,0.0019928
1124.3,-213.38,-182.15,-1.1664,0.0020047
1129.5,-212.08,-181.25,-1.1785,0.0020198
1134.6,-210.78,-180.36,-1.1899,0.0020383
1139.7,-209.48,-179.47,-1.2005,0.0020604
1144.8,-208.18,-178.6,-1.2101,0.0020469
1149.9,-206.86,-177.72,-1.2186,0.0020801
1155,-205.53,-176.85,-1.2259,0.0021177
1160.1,-204.16,-175.96,-1.2317,0.00216
1165.2,-202.77,-175.07,-1.2359,0.0022072
1170.3,-201.33,-174.17,-1.2384,0.0022598
1175.5,-199.85,-173.25,-1.2389,0.0023181
1180.6,-198.32,-172.31,-1.2375,0.0023825
1185.7,-196.72,-171.35,-1.2338,0.0024534
1190.8,-195.07,-170.36,-1.2278,0.002531
1195.9,-193.34,-169.34,-1.2192,0.0026157
1201,-191.53,-168.3,-1.2068,0.0027077
1206.1,-189.67,-167.28,-1.1867,0.002807
1211.2,-187.75,-166.27,-1.1595,0.0029123
1216.3,-185.78,-165.29,-1.1259,0.0030223
1221.4,-183.78,-164.32,-1.087,0.0031358
1226.6,-181.74,-163.37,-1.0435,0.0032517
1231.7,-179.67,-162.43,-0.9963,0.0033691
1236.8,-177.58,-161.51,-0.94628,0.0034868
1241.9,-175.48,-160.6,-0.89429,0.0036034
1247,-173.38,-159.7,-0.84119,0.0037163
1252.1,-171.27,-158.81,-0.78786,0.0038225
1257.2,-169.16,-157.92,-0.73516,0.0039181
1262.3,-167.07,-157.05,-0.68394,0.0039389
1267.4,-165,-156.18,-0.63508,0.0040022
1272.6,-162.95,-155.32,-0.58944,0.0040445
1277.7,-160.93,-154.46,-0.54788,0.004064
1282.8,-158.95,-153.6,-0.51126,0.0040609
1287.9,-157.02,-152.74,-0.48045,0.0040371
1293,-155.13,-151.89,-0.45631,0.0039959
1298.1,-153.31,-151.03,-0.43971,0.0039417
1303.2,-151.55,-150.17,-0.43151,0.0038794
1308.3,-149.82,-149.31,-0.42863,0.0038109
1313.4,-148.1,-148.45,-0.42603,0.0037349
1318.6,-146.38,-147.58,-0.42366,0.0036515
1323.7,-144.66,-146.72,-0.42153,0.0035614
1328.8,-142.95,-145.86,-0.41962,0.0034651
1333.9,-141.23,-144.99,-0.41795,0.0033629
1339,-139.51,-144.13,-0.4165,0.0032556
1344.1,-137.8,-143.27,-0.41528,0.0031436
1349.2,-136.08,-142.4,-0.41427,0.0030276
1354.3,-134.37,-141.54,-0.41348,0.0029082
1359.4,-132.66,-140.68,-0.4129,0.0027861
1364.5,-130.94,-139.81,-0.41253,0.002662
1369.7,-129.23,-138.95,-0.41237,0.0025364
1374.8,-127.52,-138.08,-0.41241,0.00241
1379.9,-125.81,-137.22,-0.41265,0.0022837
1385,-124.1,-136.35,-0.41309,0.0021389
1390.1,-122.4,-135.49,-0.41372,0.0020158
1395.2,-120.69,-134.62,-0.41454,0.0018943
1400.3,-118.98,-133.76,-0.41555,0.0017752
1405.4,-117.28,-132.9,-0.41674,0.0016588
1410.5,-115.57,-132.03,-0.41812,0.0015458
1415.7,-113.87,-131.17,-0.41967,0.0014366
1420.8,-112.17,-130.3,-0.42139,0.0013315
1425.9,-110.47,-129.44,-0.42329,0.0012308
1431,-108.77,-128.57,-0.42536,0.0011349
1436.1,-107.07,-127.71,-0.42759,0.0010439
1441.2,-105.37,-126.84,-0.42998,0.00095784
1446.3,-103.67,-125.98,-0.43253,0.0008769
1451.4,-101.98,-125.12,-0.43524,0.00080103
1456.5,-100.28,-124.25,-0.43809,0.0007302
1461.6,-98.589,-123.39,-0.4411,0.0006643
1466.8,-96.896,-122.52,-0.44426,0.00060321
1471.9,-95.204,-121.66,-0.44755,0.00054676
1477,-93.513,-120.8,-0.45099,0.00049475
1482.1,-91.823,-119.93,-0.45456,0.00044699
1487.2,-90.134,-119.07,-0.45827,0.00040324
1492.3,-88.446,-118.21,-0.4621,0.00036329
1497.4,-86.759,-117.35,-0.46607,0.00032689
1502.5,-85.073,-116.48,-0.47015,0.000291
1507.6,-83.389,-115.62,-0.47436,0.00026135
1512.8,-81.705,-114.76,-0.47868,0.00023457
1517.9,-80.022,-113.9,-0.48312,0.00021046
1523,-78.341,-113.04,-0.48767,0.00018885
1528.1,-76.661,-112.18,-0.49233,0.00016956
1533.2,-74.981,-111.31,-0.49709,0.00015243
1538.3,-73.303,-110.45,-0.50196,0.00013731
1543.4,-71.626,-109.59,-0.50692,0.00012409
1548.5,-69.95,-108.73,-0.51198,0.00011265
1553.6,-68.275,-107.87,-0.51713,0.00010287
1558.8,-66.602,-107.02,-0.52236,9.4654e-05
1563.9,-64.929,-106.16,-0.52769,8.7918e-05
1569,-63.258,-105.3,-0.53309,8.2576e-05
1574.1,-61.588,-104.44,-0.53858,7.8546e-05
1579.2,-59.919,-103.58,-0.54414,7.5751e-05
1584.3,-58.251,-102.73,-0.54978,7.4113e-05
1589.4,-56.585,-101.87,-0.55548,7.3557e-05
1594.5,-54.919,-101.01,-0.56125,7.4005e-05
1599.6,-53.255,-100.16,-0.56709,7.5375e-05
1604.7,-51.592,-99.303,-0.57298,7.7585e-05
1609.9,-49.93,-98.449,-0.57894,8.0548e-05
1615,-48.269,-97.595,-0.58494,8.4175e-05
1620.1,-46.61,-96.741,-0.591,8.8648e-05
1625.2,-44.952,-95.888,-0.5971,9.3331e-05
1630.3,-43.295,-95.036,-0.60325,9.8381e-05
1635.4,-41.639,-94.184,-0.60944,0.0001037
1640.5,-39.985,-93.332,-0.61567,0.00010919
1645.6,-38.332,-92.482,-0.62193,0.00011475
1650.7,-36.68,-91.631,-0.62823,0.0001203
1655.9,-35.029,-90.782,-0.63455,0.00012574
1661,-33.38,-89.933,-0.6409,0.000131
1666.1,-31.732,-89.085,-0.64727,0.00013601
1671.2,-30.085,-88.237,-0.65366,0.00014072
1676.3,-28.44,-87.39,-0.66007,0.00014507
1681.4,-26.796,-86.544,-0.66648,0.00014905
1686.5,-25.153,-85.699,-0.67291,0.00015263
1691.6,-23.512,-84.854,-0.67935,0.00015583
1696.7,-21.871,-84.01,-0.68578,0.00015866
1701.8,-20.233,-83.166,-0.69222,0.00016117
1707,-18.595,-82.324,-0.69865,0.00016341
1712.1,-16.959,-81.482,-0.70508,0.00016545
1717.2,-15.324,-80.641,-0.7115,0.00016738
1722.3,-13.691,-79.8,-0.71791,0.0001693
1727.4,-12.059,-78.961,-0.7243,0.00017133
1732.5,-10.428,-78.122,-0.73067,0.00017358
1737.6,-8.7989,-77.284,-0.73701,0.00017618
1742.7,-7.171,-76.447,-0.74334,0.00017476
1747.8,-5.5445,-75.611,-0.74963,0.00017795
1753,-3.9195,-74.776,-0.75589,0.00018185
1758.1,-2.2958,-73.941,-0.76212,0.0001866
1763.2,-0.67361,-73.108,-0.76831,0.00019231
1768.3,0.94719,-72.275,-0.77446,0.0001991
1773.4,2.5666,-71.443,-0.78056,0.00020707
1778.5,4.1845,-70.613,-0.78662,0.00021634
1783.6,5.801,-69.783,-0.79262,0.00022697
1788.7,7.416,-68.954,-0.79857,0.00023904
1793.8,9.0295,-68.126,-0.80447,0.00025262
1799,10.642,-67.299,-0.8103,0.00026775
1804.1,12.252,-66.473,-0.81607,0.00028447
1809.2,13.861,-65.648,-0.82177,0.00030281
1814.3,15.469,-64.824,-0.82741,0.00032277
1819.4,17.075,-64.001,-0.83297,0.00034437
1824.5,18.68,-63.179,-0.83845,0.0003676
1829.6,20.283,-62.358,-0.84386,0.00039245
1834.7,21.884,-61.538,-0.84917,0.0004189
1839.8,23.471,-60.726,-0.85413,0.00044651
1844.9,25.034,-59.925,-0.85863,0.00047499
1850.1,26.576,-59.135,-0.86278,0.0005043
1855.2,28.096,-58.355,-0.86666,0.00053444
1860.3,29.595,-57.586,-0.87038,0.00053711
1865.4,31.074,-56.826,-0.87403,0.00056746
1870.5,32.533,-56.077,-0.87772,0.00059872
1875.6,33.972,-55.336,-0.88154,0.00063098
1880.7,35.394,-54.605,-0.88559,0.00066433
1885.8,36.797,-53.883,-0.88996,0.00069889
1890.9,38.183,-53.169,-0.89475,0.00073476
1896.1,39.553,-52.464,-0.90007,0.00077208
1901.2,40.906,-51.766,-0.90601,0.000811
1906.3,42.244,-51.076,-0.91266,0.00085164
1911.4,43.567,-50.394,-0.92012,0.00089416
1916.5,44.875,-49.719,-0.9285,0.0009387
1921.6,46.17,-49.05,-0.93789,0.00098539
1926.7,47.452,-48.389,-0.94838,0.0010344
1931.8,48.721,-47.733,-0.96008,0.0010858
1936.9,49.979,-47.084,-0.97308,0.0011397
1942.1,51.225,-46.44,-0.98748,0.0011963
1947.2,52.46,-45.801,-1.0034,0.0012556
1952.3,53.685,-45.168,-1.0209,0.0013179
1957.4,54.901,-44.54,-1.0401,0.0013831
1962.5,56.108,-43.916,-1.061,0.0014515
1967.6,57.307,-43.296,-1.0839,0.001523
1972.7,58.498,-42.681,-1.1088,0.0015979
1977.8,59.682,-42.069,-1.1358,0.0016764
1982.9,60.855,-41.463,-1.1662,0.0016903
1988,62.016,-40.862,-1.2004,0.0017778
1993.2,63.163,-40.269,-1.2378,0.0018708
1998.3,64.296,-39.682,-1.2784,0.001969
2003.4,65.415,-39.102,-1.3217,0.0020718
2008.5,66.519,-38.531,-1.3675,0.0021785
2013.6,67.606,-37.967,-1.4155,0.0022882
2018.7,68.676,-37.412,-1.4655,0.0023999
2023.8,69.729,-36.865,-1.517,0.0025123
2028.9,70.764,-36.328,-1.5699,0.0026239
2034,71.779,-35.801,-1.6238,0.0027332
2039.2,72.775,-35.283,-1.6785,0.0028385
2044.3,73.751,-34.776,-1.7336,0.0029382
2049.4,74.705,-34.28,-1.7889,0.0030305
2054.5,75.637,-33.794,-1.8441,0.003114
2059.6,76.547,-33.32,-1.8988,0.0031872
2064.7,77.434,-32.859,-1.9529,0.0032491
2069.8,78.296,-32.409,-2.0059,0.0032988
2074.9,79.134,-31.972,-2.0577,0.0033361
2080,79.946,-31.548,-2.1079,0.0033611
2085.1,80.732,-31.138,-2.1563,0.0033742
2090.3,81.491,-30.741,-2.2025,0.0033766
2095.4,82.222,-30.358,-2.2462,0.0033696
2100.5,82.937,-29.985,-2.2887,0.0033272
2105.6,83.652,-29.61,-2.3324,0.0033108
2110.7,84.366,-29.237,-2.3773,0.0032862
2115.8,85.073,-28.866,-2.4229,0.0032535
2120.9,85.772,-28.5,-2.469,0.0032133
2126,86.456,-28.141,-2.5154,0.0031663
2131.1,87.124,-27.791,-2.5617,0.0031136
2136.3,87.77,-27.452,-2.6077,0.0030565
2141.4,88.391,-27.125,-2.6531,0.0029963
2146.5,88.984,-26.813,-2.6976,0.0029345
2151.6,89.544,-26.518,-2.741,0.0028723
2156.7,90.067,-26.241,-2.7829,0.0028109
2161.8,90.55,-25.985,-2.823,0.0027514
2166.9,90.988,-25.752,-2.8612,0.0026946
2172,91.379,-25.543,-2.8971,0.0026411
2177.1,91.718,-25.361,-2.9304,0.0025917
2182.3,92,-25.207,-2.9609,0.0025468
2187.4,92.224,-25.084,-2.9883,0.002507
2192.5,92.384,-24.993,-3.0122,0.0024725
2197.6,92.476,-24.936,-3.0325,0.0024441
2202.7,92.498,-24.916,-3.0488,0.002422
2207.8,92.444,-24.934,-3.0609,0.0024069
2212.9,92.312,-24.992,-3.0684,0.0023991
2218,92.139,-25.072,-3.0736,0.0023953
2223.1,91.966,-25.151,-3.0788,0.002434
2228.2,91.792,-25.231,-3.084,0.0024305
2233.4,91.619,-25.31,-3.0891,0.002427
2238.5,91.445,-25.39,-3.0943,0.0024236
2243.6,91.272,-25.47,-3.0994,0.0024201
2248.7,91.098,-25.549,-3.1046,0.0024168
2253.8,90.924,-25.629,-3.1097,0.0024134
2258.9,90.75,-25.709,-3.1148,0.0024101
2264,90.576,-25.789,-3.1199,0.0024068
2269.1,90.402,-25.869,-3.125,0.0024036
2274.2,90.228,-25.95,-3.1301,0.0024004
2279.4,90.053,-26.03,-3.1351,0.0023972
2284.5,89.879,-26.11,-3.1402,0.002394
2289.6,89.704,-26.191,-3.1452,0.0023909
2294.7,89.53,-26.271,-3.1503,0.0023879
2299.8,89.355,-26.352,-3.1553,0.0023848
2304.9,89.18,-26.432,-3.1603,0.0023818
2310,89.005,-26.513,-3.1653,0.0023788
2315.1,88.83,-26.594,-3.1703,0.0023759
2320.2,88.655,-26.675,-3.1753,0.002373
2325.4,88.479,-26.756,-3.1803,0.0023702
2330.5,88.304,-26.837,-3.1852,0.0023673
2335.6,88.129,-26.918,-3.1902,0.0023646
2340.7,87.953,-26.999,-3.1951,0.0024063
2345.8,87.777,-27.08,-3.2,0.0024037
2350.9,87.601,-27.162,-3.205,0.0024011
2356,87.425,-27.243,-3.2099,0.0023986
2361.1,87.249,-27.325,-3.2148,0.0023961
2366.2,87.073,-27.406,-3.2197,0.0023937
2371.3,86.897,-27.488,-3.2246,0.0023912
2376.5,86.721,-27.57,-3.2294,0.0023889
2381.6,86.544,-27.651,-3.2343,0.0023865
2386.7,86.368,-27.733,-3.2391,0.0023841
2391.8,86.191,-27.815,-3.244,0.0023818
2396.9,86.015,-27.897,-3.2488,0.0023796
2402,85.838,-27.979,-3.2536,0.0023773
2407.1,85.661,-28.062,-3.2585,0.0023751
2412.2,85.484,-28.144,-3.2633,0.0023729
2417.3,85.307,-28.226,-3.2681,0.0023707
2422.5,85.129,-28.309,-3.2728,0.0023686
2427.6,84.952,-28.391,-3.2776,0.0023665
2432.7,84.775,-28.473,-3.2824,0.0023644
2437.8,84.597,-28.556,-3.2871,0.0023623
2442.9,84.419,-28.639,-3.2919,0.0023603
2448,84.242,-28.722,-3.2966,0.0023583
2453.1,84.064,-28.804,-3.3014,0.0023563
2458.2,83.886,-28.887,-3.3061,0.0023543
2463.3,83.708,-28.97,-3.3108,0.0023968
2468.4,83.529,-29.053,-3.3155,0.002395
2473.6,83.351,-29.136,-3.3202,0.0023931
2478.7,83.173,-29.22,-3.3249,0.0023913
2483.8,82.994,-29.303,-3.3295,0.0023895
